theta,emf a,emf b,emf c
radian,volt,volt,volt
0.0,113.66147702783027,-40.7050523338596,-87.31422624093007
0.0012578949563923096,113.59849434782826,-39.84543745855105,-87.88317782076317
0.002515789912784619,113.53202247450209,-38.981195690438405,-88.44729825552426
0.0037736848691769286,113.46214734892979,-38.11273125147999,-89.0064404085514
0.005031579825569238,113.38896875569553,-37.240470591146924,-89.56046141318464
0.006289474781961548,113.31259859067507,-36.36486004134388,-90.10922268169561
0.007547369738353857,113.23315897734771,-35.48636330283533,-90.65258982677467
0.008805264694746167,113.15078025472492,-34.60545878183122,-91.19043250489764
0.010063159651138477,113.0655988614039,-33.72263679654995,-91.72262419206882
0.011321054607530787,112.97775514136353,-32.83839667455765,-92.24904190344125
0.012578949563923096,112.88739109790977,-31.95324376248719,-92.76956586912056
0.013836844520315406,112.79464812263676,-31.06768637034677,-93.28407917906426
0.015094739476707714,112.69966472639801,-30.18223267305691,-93.7924674103781
0.016352634433100026,112.60257429907972,-29.297387592084206,-94.2946182504839
0.017610529389492334,112.50350292443764,-28.413649680088024,-94.79042112958581
0.018868424345884646,112.40256727541384,-27.531508031358044,-95.27976687559173
0.020126319302276954,112.29987261419654,-26.651439240503553,-95.76254740416395
0.02138421425866926,112.19551091985024,-25.773904431366635,-96.23865545587711
0.022642109215061573,112.08955916463628,-24.89934637747702,-96.70798439156826
0.02390000417145388,111.98207775819617,-24.028186734558297,-97.17042805588427
0.025157899127846193,111.87310917660379,-23.160823404640833,-97.62588071777785
0.0264157940842385,111.7626767909392,-22.297628050248942,-98.07423709530161
0.027673689040630813,111.6507839075267,-21.438943775919835,-98.51539247051004
0.02893158399702312,111.53741302934618,-20.58508299299357,-98.94924289863201
0.03018947895341543,111.42252534540367,-19.736325482194392,-99.37568551394374
0.03144737390980774,111.30606045207023,-18.892916667028235,-99.79461893297602
0.03270526886620005,111.18793630760278,-18.05506610944735,-100.20594375386173
0.03396316382259236,111.06804941828148,-17.222946237610202,-100.6095631487939
0.03522105877898467,110.94627525187211,-16.39669131389291,-101.0053835447494
0.036478953735376976,110.82246887148074,-15.576396649609126,-101.39331538586633
0.03773684869176929,110.69646578034522,-14.762118071177357,-101.77327396917131
0.0389947436481616,110.56808296573469,-13.95387164075152,-102.14518034376073
0.04025263860455391,110.43712012793254,-13.151633632612386,-102.50896226207671
0.041510533560946215,110.30336107828512,-12.355340764919898,-102.86455517060016
0.04276842851733852,110.16657528853169,-11.564890684751555,-103.21190322614041
0.04402632347373084,110.02651957211285,-10.780142702720987,-103.55096032294185
0.045284218430123147,109.88293987689482,-10.000918771880263,-103.88169111508257
0.046542113386515455,109.73557316776576,-9.22700470407946,-104.20407201810701
0.04780000834290776,109.58414937686322,-8.458151615485887,-104.51809217353834
0.04905790329930008,109.42839339878242,-7.6940775915663835,-104.82375435985628
0.050315798255692386,109.26802710799943,-6.934469560510334,-105.12107583370957
0.051573693212084694,109.10277137591457,-6.178985362830013,-105.41008908555973
0.052831588168477,108.93234806537579,-5.427256003716774,-105.69084249462257
0.05408948312486931,108.75648198126962,-4.678888073665347,-105.96340086887872
0.055347378081261625,108.57490275675268,-3.933466321907591,-106.22784585705645
0.05660527303765393,108.38734665592727,-3.190556366319308,-106.48427622083645
0.05786316799404624,108.19355827521626,-2.4497075226919116,-106.7328079570719
0.05912106295043855,107.99329212734537,-1.710455735583957,-106.97357426154238
0.06037895790683086,107.786314093672,-0.9723265924013491,-107.20672532764277
0.06163685286322317,107.57240273257499,-0.23483840188824778,-107.43242797542567
0.06289474781961547,107.35135043372235,0.5024946821443763,-107.65086510854314
0.0641526427760078,107.12296441022094,1.2401595112789066,-107.86223499884142
0.0654105377324001,106.8870675229033,1.9786407867056466,-108.06675040062076
0.06666843268879241,106.64349893328645,2.718417916795232,-108.26463749885573
0.06792632764518472,106.39211458401361,3.459961907555932,-108.45613469794182
0.06918422260157703,106.13278750783445,4.203732305322551,-108.64149125976738
0.07044211755796934,105.8654079683612,4.950174210734234,-108.82096580206944
0.07170001251436164,105.58988343792859,5.699715382660763,-108.99482467009034
0.07295790747075395,105.30613841985601,6.452763450236332,-109.16334019648083
0.07421580242714626,105.0141141242398,7.209703250551076,-109.32678886616219
0.07547369738353858,104.7137680080641,7.970894308841145,-109.48544940444404
0.07673159233993089,104.40507319189336,8.736668477204887,-109.63960080806751
0.0779894872963232,104.08801776667966,9.507327746964567,-109.78952033998785
0.0792473822527155,103.76260400526816,10.283142248782884,-109.93548150960359
0.08050527720910781,103.4288474940062,11.064348453547387,-110.0777520607698
0.08176317216550012,103.08677620044156,11.851147585844352,-110.216591990285
0.08302106712189243,102.7364294934357,12.643704260572724,-110.35225161960959
0.08427896207828474,102.37785713211362,13.442145351895295,-110.48496974235117
0.08553685703467705,102.01111823992244,14.246559102298487,-110.61497186953768
0.08679475199106937,101.63628027969102,15.05699447803864,-110.74246859389874
0.08805264694746168,101.25341804496887,15.873460775699815,-110.86765409329136
0.08931054190385398,100.8626126820995,16.69592748298218,-110.99070479205211
0.09056843686024629,100.46395075645411,17.524324395191037,-111.11177819744543
0.0918263318166386,100.05752337504418,18.358541987213517,-111.23101192652753
0.09308422677303091,99.64342537635633,19.198432039063075,-111.34852293667656
0.09434212172942322,99.22175459674129,20.043808511350285,-111.46440697077388
0.09560001668581553,98.79261122105652,20.89444866531642,-111.57873822559321
0.09685791164220783,98.35609722354083,21.750094420352667,-111.69156924938302
0.09811580659860016,97.91231590311055,22.610453940238852,-111.80293107195213
0.09937370155499246,97.461371515442,23.47520343767767,-111.91283356781992
0.10063159651138477,97.00336900236836,24.3439891850951,-112.02126605020247
0.10188949146777708,96.5384138172996,25.216429718131533,-112.12819809081381
0.10314738642416939,96.06661184359876,26.09211821677593,-112.23358055769927
0.1044052813805617,95.58806940114226,26.970625047715707,-112.33734686062469
0.105663176336954,95.10289333468147,27.851500450190102,-112.43941439095077
0.10692107129334631,94.6111911761317,28.73427734647165,-112.53968614046634
0.10817896624973862,94.11307137156226,29.618474257056512,-112.63805248136453
0.10943686120613094,93.60864356247059,30.503598299744556,-112.73439308745608
0.11069475616252325,93.09801890990889,31.389148251034086,-112.82857897485073
0.11195265111891556,92.58131044920898,32.27461764766351,-112.92047463872566
0.11321054607530787,92.05863346243117,33.1594979057029,-113.00994026146574
0.11446844103170017,91.53010585525756,34.04328143434652,-113.09683396641617
0.11572633598809248,90.99584852485934,34.92546472148617,-113.18101409075568
0.11698423094448479,90.45598570530159,35.805551368257944,-113.2623414505884
0.1182421259008771,89.91064527730015,36.683055050058684,-113.34068157126602
0.1195000208572694,89.35995902961405,37.55750238201857,-113.41590685620392
0.12075791581366171,88.80406286003688,38.4284356675986,-113.48789866803223
0.12201581077005404,88.24309690482879,39.29541550984834,-113.55654929683126
0.12327370572644634,87.677205586499,40.158023265908625,-113.62176379142205
0.12453160068283865,87.10653757108787,41.01586332656841,-113.68346163121066
0.12578949563923095,86.53124562749413,41.86856520407966,-113.74157821789754
0.12704739059562328,85.95148638292271,42.71578541298094,-113.79606616844279
0.1283052855520156,85.3674199701757,43.55720913037905,-113.84689639299542
0.1295631805084079,84.77920956424236,44.392551623962724,-113.89405894403014
0.1308210754648002,84.18702080744892,45.22155943796712,-113.93756362564812
0.13207897042119252,83.5910211242719,46.044011329351136,-113.97744035486315
0.13333686537758482,82.99137892877576,46.859718948572116,-114.01373926967517
0.13459476033397713,82.38826272948555,47.668527261531175,-114.04653058178774
0.13585265529036944,81.78184013831277,48.47031471148723,-114.07590417492446
0.13711055024676175,81.17227679190171,49.26499312198711,-114.10196895279606
0.13836844520315406,80.55973519542165,50.05250734410334,-114.12485194383102
0.13962634015954636,79.94437350037809,50.83283465349413,-114.14469717276693
0.14088423511593867,79.32634422943116,51.605983904974494,-114.16166431207066
0.14214213007233098,78.7057929624676,52.37199445439497,-114.17592712887779
0.1434000250287233,78.08285699926104,53.130934859640746,-114.18767174567708
0.1446579199851156,77.45766401495216,53.88290137446964,-114.19709473528845
0.1459158149415079,76.83033072527651,54.6280162506822,-114.20440107275546
0.1471737098979002,76.20096157894868,55.36642586573983,-114.2098019685754
0.14843160485429252,75.56964749487081,56.09829869440415,-114.21351260919451
0.14968949981068486,74.93646466186527,56.823823144242134,-114.21574983188579
0.15094739476707716,74.3014734184324,57.5432052759161,-114.21672976198359
0.15220528972346947,73.66471722960684,58.256666430043154,-114.21666544096502
0.15346318467986178,73.02622177733082,58.964440783051586,-114.21576447403051
0.1547210796362541,72.38599417988905,59.66677285488224,-114.21422672564972
0.1559789745926464,71.74402235486464,60.363914991566624,-114.21224209099692
0.1572368695490387,71.10027453879205,61.05612484566643,-114.20998837031533
0.158494764505431,70.45469897521481,61.74366287727539,-114.20762927202954
0.15975265946182332,69.8072237812188,62.42678989777272,-114.2053125688852
0.16101055441821563,69.15775700072865,63.105764677775355,-114.20316842955278
0.16226844937460794,68.50618685094021,63.78084163978176,-114.20130794601145
0.16352634433100025,67.85238216624333,64.45226865483545,-114.19982187465801
0.16478423928739255,67.19619304188845,65.12028496117938,-114.19877960648633
0.16604213424378486,66.53745167749109,65.7851192213384,-114.19822837889792
0.16730002920017717,65.87597341827627,66.44698773236964,-114.19819273875945
0.16855792415656948,65.21155798976865,67.10609280218574,-114.19867426325854
0.16981581911296179,64.54399091945375,67.76262130290019,-114.1996515419655
0.1710737140693541,63.87304513680268,68.41674341008867,-114.20108042031937
0.1723316090257464,63.19848274098816,69.0686115347372,-114.20289450156682
0.17358950398213874,62.52005692364794,69.71835945247194,-114.20500590102864
0.17484739893853105,61.83751403219965,70.36610163246912,-114.2073062434921
0.17610529389492335,61.15059575749284,71.01193276625033,-114.20966789156365
0.17736318885131566,60.45904142802761,71.6559274944028,-114.21194539000695
0.17862108380770797,59.762590391586045,72.29814032715375,-114.21397710846536
0.17987897876410028,59.06098446393187,72.93860575269655,-114.21558706256361
0.18113687372049259,58.35397042324839,73.57733852523681,-114.21658689122596
0.1823947686768849,57.641302528214815,74.21433412292326,-114.21677796616699
0.1836526636332772,56.92274503707597,74.84956936417036,-114.2159536079285
0.1849105585896695,56.19807470474643,75.48300316938753,-114.21390138157061
0.18616845354606182,55.467083234908785,76.11457745381975,-114.21040544419358
0.18742634850245413,54.729579664220545,76.74421813609146,-114.20524891587843
0.18868424345884643,53.98539265612961,77.37183624614235,-114.19821624539793
0.18994213841523874,53.23437268241338,77.99732911555746,-114.18909554216553
0.19120003337163105,52.4763940713907,78.62058163283687,-114.17768084635607
0.19245792832802336,51.711356902803104,79.24146754591752,-114.16377430994446
0.19371582328441567,50.939188730606766,79.85985079426214,-114.14718826255225
0.19497371824080797,50.159846116349115,80.47558685305714,-114.12774713745449
0.1962316131972003,49.37331595740535,81.08852407251379,-114.10528923486282
0.19748950815359262,48.57961659610527,81.69850499593228,-114.07966830163711
0.19874740310998493,47.778798697668826,82.30536764106076,-114.05075490886817
0.20000529806637724,46.97094588687266,82.90894673034248,-114.0184376112815
0.20126319302276954,46.15617513546476,83.50907485688084,-113.98262387511217
0.20252108797916185,45.33463689451179,84.105583574348,-113.94324076395216
0.20377898293555416,44.50651496808129,84.69830440059074,-113.90023537504342
0.20503687789194647,43.67202612690292,85.28706972633526,-113.85357502154218
0.20629477284833878,42.83141946290294,85.87171362212717,-113.80324715937473
0.20755266780473108,41.98497548773679,86.45207253844688,-113.74925906040455
0.2088105627611234,41.13300498063742,87.02798589578397,-113.69163723669475
0.2100684577175157,40.27584759303176,87.59929656331262,-113.6304266236416
0.211326352673908,39.41387021943167,88.16585122665789,-113.56568953263789
0.21258424763030032,38.547465146065456,88.7275006470516,-113.49750438666177
0.21384214258669262,37.677047990558385,89.28409981592327,-113.425964254747
0.21510003754308493,36.803055447686546,89.83550801063109,-113.35117520364
0.21635793249947724,35.92594285779802,90.38158875858569,-113.27325448706249
0.21761582745586955,35.0461816159101,90.92220971843464,-113.19232859484998
0.21887372241226188,34.16425644074077,91.45724248823775,-113.10853118580235
0.2201316173686542,33.28066252400559,91.98656235165616,-113.02200092934979
0.2213895123250465,32.39590258120391,92.51004797408349,-112.9328792820859
0.2226474072814388,31.51048382582496,93.02758106135401,-112.84130822584683
0.22390530223783112,30.624914889422463,93.5390459941616,-112.7474279943082
0.22516319719422342,29.73970271033378,94.04432945160562,-112.65137481503379
0.22642109215061573,28.8553494139602,94.54332003734096,-112.55327869354367
0.22767898710700804,27.972349207477293,95.03590792165282,-112.45326126527891
0.22893688206340035,27.091185311617476,95.521984512397,-112.35143374034025
0.23019477701979266,26.212326951761824,96.00144216715819,-112.24789496458042
0.23145267197618496,25.3362264300064,96.47417395818178,-112.14272961905587
0.23271056693257727,24.46331629913535,96.94007350064636,-112.03600657801262
0.23396846188896958,23.594006658551127,97.39903485367591,-111.9277774435214
0.2352263568453619,22.728682591188946,97.8509525021595,-111.81807527261275
0.2364842518017542,21.86770175929268,98.29572142597354,-111.70691351032703
0.2377421467581465,21.011392175663392,98.7332372616055,-111.59428513951914
0.2390000417145388,20.160050165621715,99.16339655948406,-111.48016205557394
0.24025793667093112,19.313938533465997,99.58609713855348,-111.3644946714344
0.24151583162732343,18.473284945672162,100.00123853781524,-111.24721175555447
0.24277372658371577,17.638280541481244,100.40872256272391,-111.12822050259561
0.24403162154010807,16.80907877987114,100.80845392249539,-111.00740683393082
0.24528951649650038,15.985794530222101,101.20034095259182,-110.88463592233036
0.2465474114528927,15.168503412275873,101.58429641491401,-110.75975293261916
0.247805306409285,14.357241389265143,101.96023836658735,-110.63258396764239
0.2490632013656773,13.552004616369159,102.32809108669673,-110.50293720658962
0.2503210963220696,12.752749544940892,102.68778604893106,-110.37060422062866
0.2515789912784619,11.959393281264784,103.03926292686705,-110.2353614489189
0.25283688623485423,11.171814196948956,103.3824706175662,-110.09697181642849
0.25409478119124657,10.389852786444814,103.71736826830693,-109.9551864735887
0.25535267614763885,9.613312765624833,104.04392629063115,-109.80974663669781
0.2566105711040312,8.841962403848104,104.36212734547082,-109.66038550714529
0.25786846606042346,8.075536080508202,104.67196728293887,-109.50683024697506
0.2591263610168158,7.3137360556927105,104.97345602043228,-109.34880398804306
0.2603842559732081,6.556234443302768,105.26661834299945,-109.18602785205286
0.2616421509296004,5.802675373777422,105.55149461047326,-109.01822295906739
0.2629000458859927,5.052677332458112,105.82814135666008,-108.845112402687
0.26415794084238503,4.305835658606817,106.09663176689446,-108.66642317094266
0.2654158357987773,3.5617251891693975,106.3570560215094,-108.48188799306321
0.26667373075516965,2.8199030305477004,106.60952149422113,-108.29124709361996
0.2679316257115619,2.0799114409224444,106.85415279606171,-108.09424983710595
0.26918952066795426,1.3412808050443887,107.09109165730224,-107.89065624775404
0.27044741562434654,0.6035326828970154,107.32049664176043,-107.68023839130281
0.2717053105807389,-0.13381708677885626,107.54254268996313,-107.46278160746346
0.27296320553713116,-0.871255247411313,107.757420489805,-107.23808558398807
0.2742211004935235,-1.6092679694841021,107.96533567558168,-107.00596526546396
0.2754789954499158,-2.348337698981869,108.16650785855042,-106.76625159222715
0.2767368904063081,-3.0889400289730635,108.36116949445203,-106.51879206706961
0.27799478536270045,-3.831540613780067,108.54956459568334,-106.26345114968004
0.2792526803190927,-4.576592144952771,108.73194729800956,-106.00011048097456
0.28051057527548506,-5.324531407917156,108.90858029381972,-105.72866894161228
0.28176847023187734,-6.075776437720853,109.07973314592388,-105.44904255102605
0.2830263651882697,-6.830723791744156,109.24568049774267,-105.16116421520097
0.28428426014466196,-7.589745956584017,109.40670019741964,-104.86498333318033
0.2855421551010543,-8.353188905558303,109.56307135486566,-104.56046527385035
0.2868000500574466,-9.12136982241571,109.71507235200804,-104.24759073592735
0.2880579450138389,-9.894575005877623,109.86297882753763,-103.9263550052342
0.2893158399702312,-10.67305796858432,110.00706165820898,-103.59676712429037
0.29057373492662353,-11.457037742874096,110.14758495924319,-103.25884898994009
0.2918316298830158,-12.246697404590822,110.28480412659306,-102.9126343952059
0.29308952483940814,-13.042182824804756,110.41896394375344,-102.55816803177105
0.2943474197958004,-13.843601657937988,110.55029677543075,-102.19550446946808
0.29560531475219276,-14.651022573328845,110.67902086972956,-101.82470712888453
0.29686320970858504,-15.464474735742334,110.80533878956709,-101.44584726269903
0.2981211046649774,-16.283947538755733,110.92943599280946,-101.05900296064016
0.2993789996213697,-17.109390593317585,111.05147957913593,-100.66425819203342
0.300636894577762,-17.94071397211393,111.1716172199046,-100.2617018987794
0.30189478953415433,-18.777788708676177,111.28997628533045,-99.851427150313
0.3031526844905466,-19.620447548451345,111.4066631811161,-99.43353037064928
0.30441057944693894,-20.468485947332567,111.5217629043253,-99.00811064604183
0.3056684744033312,-21.32166331142601,111.63533882578548,-98.575269120105
0.30692636935972356,-22.179704470130655,111.74743270367854,-98.1351084814892
0.30818426431611584,-23.042301372928787,111.85806493026267,-97.68773254738919
0.3094421592725082,-23.909114998655827,111.96723501089355,-97.23324594433223
0.31070005422890046,-24.77977746443643,112.07492227171964,-96.77175388586046
0.3119579491852928,-25.653894319967055,112.18108678964273,-96.30336204492049
0.3132158441416851,-26.531047011393728,112.28567053540358,-95.82817651703179
0.3144737390980774,-27.410795497703674,112.38859871800462,-95.34630386864148
0.3157316340544697,-28.292681001320112,112.48978131615188,-94.85785126352192
0.316989529010862,-29.176228873487972,112.58911478002248,-94.36292665864198
0.3182474239672543,-30.06095155406218,112.68648388446954,-93.86163905966893
0.31950531892364664,-30.94635160448283,112.78176371279766,-93.35409882515386
0.3207632138800389,-31.83192479204533,112.87482174850052,-92.84041800753299
0.32202110883643126,-32.7171632030614,112.96552005087706,-92.32071071835375
0.3232790037928236,-33.60155836216603,113.05371748925073,-91.79509350462361
0.3245368987492159,-34.484604334862766,113.13927200962766,-91.26368572287662
0.3257947937056082,-35.365800790420394,113.2220429070547,-90.72660989747862
