theta,emf a,emf b,emf c
radian,volt,volt,volt
0.0,170.84223510293995,-60.988030651661276,-131.86545466875816
0.0012578949563923096,170.74419081935153,-59.73155738471213,-132.7130359828703
0.002515789912784619,170.64595230750857,-58.46584220518226,-133.5566841086969
0.0037736848691769286,170.54715719719135,-57.19092864499147,-134.39600111474851
0.005031579825569238,170.44739966812747,-55.90694900162369,-135.2305115622029
0.006289474781961548,170.3462352110857,-54.614127594927105,-136.0596668813323
0.007547369738353857,170.2431859878202,-53.31278281743525,-136.8828510096636
0.008805264694746167,170.13774673038446,-52.00332793430096,-137.6993872168155
0.010063159651138477,170.0293911107525,-50.6862706062099,-138.50854602092673
0.011321054607530787,169.91757850274837,-49.36221112618104,-139.30955408305365
0.012578949563923096,169.80176105018492,-48.03183937873722,-140.10160394917855
0.013836844520315406,169.6813909480111,-46.695930547263885,-140.8838644948169
0.015094739476707714,169.55592783731342,-45.35533961226663,-141.65549191490658
0.016352634433100026,169.42484621036627,-44.01099469942969,-142.41564109190114
0.017610529389492334,169.2876427187024,-42.66388935167769,-143.1634771679519
0.018868424345884646,169.1438432754801,-41.31507381364914,-143.89818714286926
0.020126319302276954,168.99300984335702,-39.96564542992653,-144.61899131827252
0.02138421425866926,168.83474680069313,-38.616738269885445,-145.32515440999975
0.022642109215061573,168.66870678223506,-37.26951210198913,-146.0159961554257
0.02390000417145388,168.494595895492,-35.92514084865996,-146.6909012497538
0.025157899127846193,168.3121782207691,-34.584800659424126,-147.34932845547686
0.0264157940842385,168.1212795112294,-33.24965774479186,-147.99081874188968
0.027673689040630813,167.92179001932806,-31.920856116270752,-148.61500232654097
0.02893158399702312,167.71366638738124,-30.59950537900955,-149.22160450762294
0.03018947895341543,167.4969325527636,-29.286668722841497,-149.81045019518214
0.03144737390980774,167.27167963210172,-27.983351254993224,-150.38146706941592
0.03270526886620005,167.0380647636412,-26.69048881348883,-150.93468731583573
0.03396316382259236,166.79630890251767,-25.408937394407918,-151.47024790937135
0.03522105877898467,166.54669357969513,-24.139463318732155,-151.98838944220077
0.036478953735376976,166.2895566516216,-22.882734255663273,-152.4894535128287
0.03773684869176929,166.02528708391412,-21.639311209137546,-152.97387871633708
0.0389947436481616,165.75431882836057,-20.409641562940443,-153.4421952974159
0.04025263860455391,165.47712386794618,-19.194053267488247,-153.8950185484072
0.041510533560946215,165.19420451919837,-17.99275023815297,-154.33304105381592
0.04276842851733852,164.9060850946517,-16.805809021116005,-154.75702390025316
0.04402632347373084,164.6133030403939,-15.633176768327157,-155.16778698629875
0.045284218430123147,164.3163996742535,-14.474670548367492,-155.5661985800626
0.046542113386515455,164.01591065900402,-13.329978005054253,-155.95316428307171
0.04780000834290776,163.7123563518094,-12.198659360634286,-156.3296155673631
0.04905790329930008,163.40623217586938,-11.080150745561776,-156.6964980581949
0.050315798255692386,163.09799916270512,-9.973768822294952,-157.0547597375306
0.051573693212084694,162.7880748136884,-8.87871665643629,-157.40533924338777
0.052831588168477,162.47682442719164,-7.794090775012304,-157.74915443727605
0.05408948312486931,162.16455303312833,-6.718889338886142,-158.08709140638592
0.055347378081261625,161.8514980696853,-5.652021344342039,-158.4199940590012
0.05660527303765393,161.5378229277947,-4.592316757883149,-158.74865446099517
0.05786316799404624,161.22361147747063,-3.538537478360669,-159.07380404839523
0.05912106295043855,160.90886367668463,-2.4893890117780844,-159.3961058361239
0.06037895790683086,160.5934923481779,-1.4435327365878767,-159.71614772639043
0.06163685286322317,160.2773211927112,-0.3995986310711486,-160.03443700211906
0.06289474781961547,159.9600840890073,0.6438016704651215,-160.35139607156847
0.0641526427760078,159.64142571131478,1.6880616293953992,-160.6673595102395
0.0654105377324001,159.320903475421,2.7345665011199007,-160.9825724256369
0.06666843268879241,158.9979908033898,3.784680119342629,-161.29719014977852
0.06792632764518472,158.67208167662878,4.839731904674553,-161.6112792438643
0.06918422260157703,158.34249642643738,5.901004233602713,-161.9248197795748
0.07044211755796934,158.00848869129794,6.969720300080308,-162.237708842368
0.07170001251436164,157.6692534511728,8.047032596808393,-162.54976518418454
0.07295790747075395,157.3239360313032,9.134012136747288,-162.86073493643883
0.07421580242714626,156.97164195174872,10.231638527567442,-163.1702982792996
0.07547369738353858,156.6114474844834,11.340791002701485,-163.47807695027637
0.07673159233993089,156.2424107674945,12.462240502471918,-163.7836424641977
0.0779894872963232,155.86358331526822,13.596642887543178,-164.086524907941
0.0792473822527155,155.47402175746288,14.74453335477717,-164.3862221668532
0.08050527720910781,155.0727996326239,15.90632211259222,-164.68220943575017
0.08176317216550012,154.65901906158646,17.082291359245637,-164.97394886571703
0.08302106712189243,154.2318221257971,18.272593593232106,-165.26089919864324
0.08427896207828474,153.79040177919114,19.47725127034718,-165.54252524444584
0.08553685703467705,153.33401212843643,20.69615780706794,-165.81830706117267
0.08679475199106937,152.861977925226,21.92907991490291,-166.08774870550522
0.08805264694746168,152.3737031257405,23.175661235430795,-166.35038643042782
0.08931054190385398,151.86867838623502,24.43542723104228,-166.60579621781525
0.09056843686024629,151.34648737971148,25.70779127209325,-166.85360054618866
0.0918263318166386,150.8068118365809,26.992061847439583,-167.09347430766934
0.09308422677303091,150.24943523179616,28.28745081231664,-167.32514980296912
0.09434212172942322,149.6742450618363,29.593082575413316,-167.54842075882618
0.09560001668581553,149.08123367681347,30.90800411592915,-167.76314532836597
0.09685791164220783,148.4704976554826,32.231195711537694,-167.969248051156
0.09811580659860016,147.84223573370207,33.561582249652325,-168.1667207659736
0.09937370155499246,147.19674531953595,34.898044987318876,-168.35562248525122
0.10063159651138477,146.53441765033924,36.23943361956266,-168.53607825555903
0.10188949146777708,145.85573166844333,37.584578512183526,-168.70827704309815
0.10314738642416939,145.1612467121238,38.93230295289408,-168.87246869679785
0.1044052813805617,144.45159413702896,40.28143527440085,-169.02896005404952
0.105663176336954,143.7274679998883,41.630820704549464,-169.17811026520263
0.10692107129334631,142.9896149508058,42.97933280202606,-169.3203254225632
0.10817896624973862,142.2388234925497,44.32588434129388,-169.45605258765764
0.10943686120613094,141.47591277475462,45.6694375174249,-169.5857733168924
0.11069475616252325,140.7017210977214,47.00901335018508,-169.7099967903882
0.11195265111891556,139.91709430439127,48.343700177073806,-169.829252651699
0.11321054607530787,139.12287424005063,49.67266113687576,-169.94408366733887
0.11446844103170017,138.3198874573545,50.995140558534956,-170.05503831458384
0.11572633598809248,137.50893433938558,52.31046918463816,-170.16266340396143
0.11698423094448479,136.69077880578413,53.6180681743201,-170.26749683926346
0.1182421259008771,135.86613875660464,54.91745184678329,-170.37006061295727
0.1195000208572694,135.0356773956845,56.20822914363316,-170.4708541286314
0.12075791581366171,134.1999955601435,57.490103805652176,-170.5703479347628
0.12201581077005404,133.35962516544825,58.762873277218745,-170.66897794578003
0.12327370572644634,132.51502385656062,60.02642636908248,-170.76714021729615
0.12453160068283865,131.6665709353632,61.28073972737676,-170.86518633267124
0.12578949563923095,130.81456461317157,62.52587317334247,-170.96341944790225
0.12704739059562328,129.95922061506218,63.76196399398846,-171.06209103142086
0.1283052855520156,129.10067214033714,64.98922027860573,-171.16139832486124
0.1295631805084079,128.23897116109916,66.20791340943468,-171.2614825404098
0.1308210754648002,127.37409101899551,67.41836982666041,-171.3624278001242
0.13207897042119252,126.50593025906842,68.6209621980786,-171.46426081274262
0.13333686537758482,125.63431761969234,69.81610013206092,-171.56695127412902
0.13459476033397713,124.75901807909848,71.00422057871747,-171.67041296872728
0.13585265529036944,123.87973984230248,72.18577806827771,-171.77450554131616
0.13711055024676175,122.99614213762854,73.36123493761215,-171.8790369010512
0.13836844520315406,122.10784367970373,74.53105169543832,-171.98376621330397
0.13962634015954636,121.2144316459737,75.69567767408495,-172.08840742920643
0.14088423511593867,120.31547100661747,76.85554211073715,-172.1926332981013
0.14214213007233098,119.41051404332573,78.01104579391702,-172.29607980429708
0.1434000250287233,118.49910989080672,79.16255340165156,-172.39835096662006
0.1446579199851156,117.58081393611323,80.31038664647484,-172.49902393722044
0.1459158149415079,116.65519691490044,81.45481832926025,-172.59765433489565
0.1471737098979002,115.72185355044665,82.59606738907205,-172.693781747792
0.14843160485429252,114.78041059056075,83.73429501998923,-172.78693534067833
0.14968949981068486,113.83053410919608,84.86960190842882,-172.87663950300518
0.15094739476707716,112.87193595346474,86.00202662615466,-172.96241947557866
0.15220528972346947,111.90437923256083,87.13154519518667,-173.0438068958535
0.15346318467986178,110.92768276256604,88.25807182152342,-173.12034520448375
0.1547210796362541,109.94172439992221,89.38146077527506,-173.19159485881514
0.1559789745926464,108.94644321618539,90.5015093757788,-173.25713830238453
0.1572368695490387,107.94184048717663,91.61796202185525,-173.31658464314722
0.158494764505431,106.92797949046957,92.7305151898648,-173.36957399702814
0.15975265946182332,105.90498412594252,93.83882330593512,-173.41578145743316
0.16101055441821563,104.87303639452558,94.94250538392625,-173.4549206555207
0.16226844937460794,103.8323727899444,96.04115230764371,-173.4867468802814
0.16352634433100025,102.78327967687584,97.1343346247231,-173.51105973177613
0.16478423928739255,101.72608774618051,98.22161071069706,-173.52770528521683
0.16604213424378486,100.66116565347444,99.30253515517855,-173.5365777479212
0.16730002920017717,99.58891296100671,100.37666721798017,-173.53762059552676
0.16855792415656948,98.50975251438999,101.44357920142843,-173.53082717819674
0.16981581911296179,97.42412239501927,102.50286458616242,-173.51624079189804
0.1710737140693541,96.33246759586217,103.55414578133582,-173.4939542141737
0.1723316090257464,95.2352315726181,104.59708134632302,-173.4641087081746
0.17358950398213874,94.13284782396755,105.6313725496807,-173.42689250306083
0.17484739893853105,93.02573165375871,106.6567691421035,-173.38253876323145
0.17610529389492335,91.91427226453682,107.67307423327135,-173.33132306319249
0.17736318885131566,90.79882532588744,108.68014817760313,-173.2735603892242
0.17862108380770797,89.67970615276184,109.67791139076759,-173.20960169334649
0.17987897876410028,88.55718361842331,110.66634603708317,-173.13983002939418
0.18113687372049259,87.43147491410109,111.64549654735862,-173.0646563052801
0.1823947686768849,86.3027412530744,112.61546894696816,-172.98451468971143
0.1836526636332772,85.17108460099011,113.57642899467405,-172.89985771570358
0.1849105585896695,84.03654549701157,114.52859915355849,-172.81115112715867
0.18616845354606182,82.89910201219601,115.4722544360499,-172.71886851849607
0.18742634850245413,81.75866987260598,116.40771718506883,-172.62348582078164
0.18868424345884643,80.61510375539045,117.33535087243591,-172.525475690943
0.18994213841523874,79.46819974673544,118.25555301353647,-172.42530186341023
0.19120003337163105,78.31769893149418,119.16874731351977,-172.32341352582353
0.19245792832802336,77.16329206577048,120.07537517472578,-172.2202397822218
0.19371582328441567,76.0046252660322,120.97588670733178,-172.11618426831083
0.19497371824080797,74.8413066317536,121.87073139515928,-172.0116199839301
0.1962316131972003,73.67291370337612,122.76034857600328,-171.90688440763924
0.19748950815359262,72.49900164376626,123.6451579005913,-171.80227495736312
0.19874740310998493,71.31911201953538,124.52554993625711,-171.69804485922887
0.20000529806637724,70.13278204873839,125.40187708056557,-171.59439948405668
0.20126319302276954,68.93955417371987,126.27444494645833,-171.49149320740202
0.20252108797916185,67.73898581233243,127.14350437403971,-171.38942684458266
0.20377898293555416,66.53065913746784,128.00924421499434,-171.2882457067554
0.20503687789194647,65.31419073385703,128.87178502395204,-171.18793831786286
0.20629477284833878,64.08924098239055,129.73117377708556,-171.08843582518
0.20755266780473108,62.85552302575416,130.58737972206578,-170.98961212830682
0.2088105627611234,61.61281117487837,131.44029144546712,-170.8912847428597
0.2100684577175157,60.36094862346658,132.2897152241204,-170.7932164058843
0.211326352673908,59.0998543475488,133.13537470606482,-170.69511742027083
0.21258424763030032,57.829529078445766,133.9769119450136,-170.59664872530408
0.21384214258669262,56.550060250532006,134.81388978997538,-170.49742567007962
0.21510003754308493,55.26162583955004,135.6457956092473,-170.397022456003
0.21635793249947724,53.96449702272117,136.47204630579142,-170.2949772041229
0.21761582745586955,52.65903960829128,137.29199455939795,-170.19079759280748
0.21887372241226188,51.34571419919071,138.1049362103999,-170.08396700142129
0.2201316173686542,50.025075072927315,138.9101186803816,-169.97395108637753
0.2213895123250465,48.697767777419905,139.70675030764426,-169.8602047074042
0.2226474072814388,47.364525459966124,140.49401045946604,-169.74217911423776
0.22390530223783112,46.026163963681505,141.27106026968795,-169.6193292974148
0.22516319719422342,44.68357574231474,142.0370538390944,-169.49112140150953
0.22642109215061573,43.33772266011719,142.79114972764515,-169.3570400952162
0.22767898710700804,41.989627758218944,143.53252256198525,-169.21659579020107
0.22893688206340035,40.640366082557854,144.2603745789139,-169.06933159976077
0.23019477701979266,39.29105468065089,144.97394692568707,-168.91482992909067
0.23145267197618496,37.9428418852536,145.6725305411523,-168.75271859143345
0.23271056693257727,36.596896012099805,146.35547644772424,-168.58267634857506
0.23396846188896958,35.25439360635701,147.0222052930009,-168.40443778006593
0.2352263568453619,33.916507378104704,147.67221599125415,-168.21779739313487
0.2364842518017542,32.584393970994526,148.30509332890222,-168.0226128944631
0.2377421467581465,31.259181710269964,148.92051441416416,-167.8188075556977
0.2390000417145388,29.94195847650389,149.51825386913117,-167.60637161668166
0.24025793667093112,28.633759849791673,150.09818768216522,-167.38536268369663
0.24151583162732343,27.335557665758483,150.66029565952715,-167.1559050943891
0.24277372658371577,26.048249119674452,151.2046624370868,-166.91818823625405
0.24403162154010807,24.772646548311492,151.73147703551686,-166.67246382137938
0.24528951649650038,23.50946801102073,152.24103096514477,-166.41904213634177
0.2465474114528927,22.259328781990398,152.73371490925064,-166.15828730245457
0.247805306409285,21.022733854883857,153.21001403668825,-165.89061159771998
0.2490632013656773,19.800071549210866,153.67050201590618,-165.61646890757095
0.2503210963220696,18.59160829499984,154.11583382240505,-165.33634738652205
0.2515789912784619,17.397484658779334,154.54673745007432,-165.05076142693048
0.25283688623485423,16.217712659704322,154.96400465339823,-164.7602430439295
0.25409478119124657,15.052174410049988,155.36848086195894,-164.46533279700472
0.25535267614763885,13.90062209940415,155.76105442075314,-164.16657037841776
0.2566105711040312,12.762679326893657,156.14264531941205,-163.86448500653037
0.25786846606042346,11.637843770839646,156.51419358031396,-163.5595857678962
0.2591263610168158,10.525491170508824,156.87664747972633,-163.25235205560588
0.2603842559732081,9.424880580278115,157.23095177744983,-162.9432242527016
0.2616421509296004,8.33516084268796,157.57803612896905,-162.63259480845227
0.2629000458859927,7.255378213683403,157.91880384988528,-162.32079985185834
0.26415794084238503,6.184485060943343,158.2541211955162,-162.00811148096352
0.2654158357987773,5.121349544713376,158.58480730912288,-161.6947308584285
0.26667373075516965,4.064766180080542,158.91162498045196,-161.38078223346454
0.2679316257115619,3.0134671702727918,159.23527234237721,-161.06630799776966
0.26918952066795426,1.9661343924025185,159.55637561763135,-160.75126486871923
0.27044741562434654,0.9214119101920786,159.8754830102217,-160.43552127694554
0.2717053105807389,-0.1220811173301555,160.1930598174234,-160.1188560178384
0.27296320553713116,-1.1657372663349919,160.50948481855593,-159.80095820767448
0.2742211004935235,-2.210947555807156,160.8250479764155,-159.48142856532928
0.2754789954499158,-3.2590881714667064,161.13994946658758,-159.15978202016169
0.2767368904063081,-4.311507345023934,161.4543000292465,-158.835451626003
0.27799478536270045,-5.3695125261635965,161.76812261779804,-158.50779374058118
0.2792526803190927,-6.434357981584387,162.08135529915887,-158.17609440949445
0.28051057527548506,-7.507232950928446,162.3938553419004,-157.8395768743661
0.28176847023187734,-8.589250483570117,162.70540441120895,-157.49741010638496
0.2830263651882697,-9.681437073046503,163.01571477387898,-157.1487182493925
0.28428426014466196,-10.784723197461929,163.32443640260306,-156.79259084129737
0.2855421551010543,-11.899934864572108,163.63116485684193,-156.4280936691779
0.2868000500574466,-13.027786249532912,163.93544980771426,-156.05428010218537
0.2880579450138389,-14.168873501587612,164.23680406676456,-155.67020273751984
0.2893158399702312,-15.323669783376943,164.5347129732215,-155.27492518847185
0.29057373492662353,-16.492521593210554,164.82864399150614,-154.867533839929
0.2918316298830158,-17.67564640666519,165.11805637027226,-154.447149395937
0.29308952483940814,-18.873131659424544,165.40241071613937,-154.01293804589906
0.2943474197958004,-20.084935078481212,165.68117833942156,-153.56412208079138
0.29560531475219276,-21.3108863538577,165.9538502354552,-153.09998979831474
0.29686320970858504,-22.550690128011954,166.2199455734409,-152.61990454607175
0.2981211046649774,-23.803930265256568,166.47901957485465,-152.12331276451943
0.2993789996213697,-25.070075348991075,166.73067067525443,-151.60975090639909
0.300636894577762,-26.34848534050729,166.97454687647632,-151.0788511263527
0.30189478953415433,-27.63841931973085,167.210351210544,-150.53034565323034
0.3031526844905466,-28.939044215684117,167.43784625183437,-149.9640697778774
0.30441057944693894,-30.249444422850022,167.65685762990017,-149.37996341062478
0.3056684744033312,-31.56863218913209,167.86727651156158,-148.77807118495318
0.30692636935972356,-32.89555865189783,168.06906103718413,-148.15854110648752
0.30818426431611584,-34.22912539077313,168.2622367121862,-147.52162176922872
0.3094421592725082,-35.56819635956392,168.4468957705241,-146.86765818337574
0.31070005422890046,-36.91161005500017,168.62319554193112,-146.1970862808473
0.3119579491852928,-38.2581917770271,168.79135586883174,-145.51042618532614
0.3132158441416851,-39.60676583416248,168.95165563190113,-144.80827435297374
0.3144737390980774,-40.95616754805239,169.10442845502797,-144.091294707562
0.3157316340544697,-42.305254913800944,169.250057670804,-143.36020890937075
0.316989529010862,-43.65291977693473,169.38897063649736,-142.6157859105218
0.3182474239672543,-44.998098393949896,169.52163249766735,-141.858830960245
0.31950531892364664,-46.339781251241774,169.6485395020898,-141.09017423173376
0.3207632138800389,-47.6770220267478,169.7702119704547,-140.31065924757874
0.32202110883643126,-49.00894558975086,169.88718703236384,-139.52113128321724
0.3232790037928236,-50.33475494686285,170.0000112365282,-138.72242592733656
0.3245368987492159,-51.65373705609457,170.109233142802,-137.91535797474026
0.3257947937056082,-52.965267445942665,170.21539600085742,-137.1007108209012
